TRACING ASCII File
Created by MP-OS program
COMMENT
 
HEADER
Start at: 	16-12-21 11:46 AM
Timebase: 	0.5 sec.
Operator: 	ME            90Â° Magnet
Operator units: 	A
Monitor1: 	FC7a         ME Moveable
Monitor1 units: 	% f.s.
 
 
 
 
 
 
 
 
DATA
O setting 	M1 reading 	
60.000 	0.20	 
60.050 	0.00	 
60.100 	0.00	 
60.150 	0.00	 
60.200 	0.00	 
60.250 	0.00	 
60.300 	0.00	 
60.350 	0.00	 
60.400 	0.00	 
60.450 	0.00	 
60.500 	0.20	 
60.550 	0.20	 
60.600 	0.20	 
60.650 	0.20	 
60.700 	0.00	 
60.750 	0.00	 
60.801 	0.00	 
60.851 	0.00	 
60.901 	0.00	 
60.951 	0.00	 
61.001 	0.00	 
61.051 	0.00	 
61.101 	0.00	 
61.151 	0.00	 
61.201 	0.00	 
61.251 	0.00	 
61.301 	0.00	 
61.351 	0.00	 
61.401 	0.00	 
61.451 	0.00	 
61.501 	0.00	 
61.551 	0.00	 
61.601 	0.00	 
61.651 	0.00	 
61.701 	0.00	 
61.751 	0.00	 
61.801 	0.00	 
61.851 	0.00	 
61.901 	0.00	 
61.951 	0.00	 
62.001 	0.00	 
62.051 	0.00	 
62.101 	0.00	 
62.151 	0.00	 
62.201 	0.00	 
62.251 	0.00	 
62.301 	0.00	 
62.351 	0.00	 
62.402 	0.00	 
62.452 	0.00	 
62.502 	0.00	 
62.552 	0.00	 
62.602 	0.00	 
62.652 	0.00	 
62.702 	0.00	 
62.752 	0.00	 
62.802 	0.00	 
62.852 	0.00	 
62.902 	0.00	 
62.952 	0.00	 
63.002 	0.00	 
63.052 	0.00	 
63.102 	0.00	 
63.152 	0.00	 
63.202 	0.00	 
63.252 	0.00	 
63.302 	0.00	 
63.352 	0.00	 
63.402 	0.00	 
63.452 	0.00	 
63.502 	0.00	 
63.552 	0.00	 
63.602 	0.00	 
63.652 	0.00	 
63.702 	0.00	 
63.752 	0.00	 
63.802 	0.00	 
63.852 	0.00	 
63.902 	0.00	 
63.952 	0.00	 
64.003 	0.00	 
64.053 	0.00	 
64.103 	0.00	 
64.153 	0.00	 
64.203 	0.00	 
64.253 	0.00	 
64.303 	0.00	 
64.353 	0.00	 
64.403 	0.00	 
64.453 	0.00	 
64.503 	0.00	 
64.553 	0.00	 
64.603 	0.00	 
64.653 	0.00	 
64.703 	0.00	 
64.753 	0.00	 
64.803 	0.00	 
64.853 	0.00	 
64.903 	0.00	 
64.953 	0.00	 
65.003 	0.00	 
65.053 	0.00	 
65.103 	0.00	 
65.153 	0.00	 
65.203 	0.00	 
65.253 	0.00	 
65.303 	0.00	 
65.353 	0.00	 
65.403 	0.00	 
65.453 	0.00	 
65.503 	0.00	 
65.553 	0.00	 
65.604 	0.00	 
65.654 	0.00	 
65.704 	0.00	 
65.754 	0.00	 
65.804 	0.00	 
65.854 	0.00	 
65.904 	0.00	 
65.954 	0.00	 
66.004 	0.00	 
66.054 	0.00	 
66.104 	0.00	 
66.154 	0.00	 
66.204 	0.00	 
66.254 	0.00	 
66.304 	0.00	 
66.354 	0.00	 
66.404 	0.00	 
66.454 	0.00	 
66.504 	0.00	 
66.554 	0.00	 
66.604 	0.00	 
66.654 	0.00	 
66.704 	0.00	 
66.754 	0.00	 
66.804 	0.00	 
66.854 	0.00	 
66.904 	0.00	 
66.954 	0.00	 
67.004 	0.00	 
67.054 	0.12	 
67.104 	0.12	 
67.154 	0.10	 
67.205 	0.00	 
67.255 	0.00	 
67.305 	0.00	 
67.355 	0.00	 
67.405 	0.00	 
67.455 	0.00	 
67.505 	0.00	 
67.555 	0.00	 
67.605 	0.00	 
67.655 	0.00	 
67.705 	0.00	 
67.755 	0.00	 
67.805 	0.00	 
67.855 	0.00	 
67.905 	0.00	 
67.955 	0.00	 
68.005 	0.00	 
68.055 	0.00	 
68.105 	0.00	 
68.155 	0.00	 
68.205 	0.00	 
68.255 	0.00	 
68.305 	0.00	 
68.355 	0.00	 
68.405 	0.00	 
68.455 	0.00	 
68.505 	0.00	 
68.555 	0.00	 
68.605 	0.00	 
68.655 	0.00	 
68.705 	0.00	 
68.755 	0.00	 
68.806 	0.00	 
68.856 	0.00	 
68.906 	0.00	 
68.956 	0.00	 
69.006 	0.00	 
69.056 	0.00	 
69.106 	0.00	 
69.156 	0.00	 
69.206 	0.00	 
69.256 	0.00	 
69.306 	0.00	 
69.356 	0.00	 
69.406 	0.00	 
69.456 	0.00	 
69.506 	0.00	 
69.556 	0.00	 
69.606 	0.00	 
69.656 	0.00	 
69.706 	0.00	 
69.756 	0.00	 
69.806 	0.00	 
69.856 	0.00	 
69.906 	0.00	 
69.956 	0.00	 
70.006 	0.00	 
70.056 	0.00	 
70.106 	0.00	 
70.156 	0.00	 
70.206 	0.00	 
70.256 	0.00	 
70.306 	0.00	 
70.356 	0.00	 
70.407 	0.00	 
70.457 	0.00	 
70.507 	0.00	 
70.557 	0.00	 
70.607 	0.00	 
70.657 	0.00	 
70.707 	0.00	 
70.757 	0.00	 
70.807 	0.00	 
70.857 	0.00	 
70.907 	0.00	 
70.957 	0.00	 
71.007 	0.00	 
71.057 	0.00	 
71.107 	0.00	 
71.157 	0.00	 
71.207 	0.00	 
71.257 	0.00	 
71.307 	0.00	 
71.357 	0.00	 
71.407 	0.00	 
71.457 	0.00	 
71.507 	0.00	 
71.557 	0.00	 
71.607 	0.00	 
71.657 	0.00	 
71.707 	0.00	 
71.757 	0.00	 
71.807 	0.02	 
71.857 	3.03	 
71.907 	4.40	 
71.957 	4.49	 
72.008 	1.03	 
72.058 	0.00	 
72.108 	0.00	 
72.158 	0.00	 
72.208 	0.00	 
72.258 	0.00	 
72.308 	0.00	 
72.358 	0.00	 
72.408 	0.00	 
72.458 	0.00	 
72.508 	0.00	 
72.558 	0.00	 
72.608 	0.00	 
72.658 	0.00	 
72.708 	0.00	 
72.758 	0.00	 
72.808 	0.00	 
72.858 	0.00	 
72.908 	0.00	 
72.958 	0.00	 
73.008 	0.00	 
73.058 	0.00	 
73.108 	0.00	 
73.158 	0.00	 
73.208 	0.00	 
73.258 	0.00	 
73.308 	0.00	 
73.358 	0.00	 
73.408 	0.00	 
73.458 	0.00	 
73.508 	0.00	 
73.558 	0.00	 
73.609 	0.00	 
73.659 	0.00	 
73.709 	0.00	 
73.759 	0.00	 
73.809 	0.00	 
73.859 	0.00	 
73.909 	0.00	 
73.959 	0.00	 
74.009 	0.00	 
74.059 	0.00	 
74.109 	0.00	 
74.159 	0.00	 
74.209 	0.00	 
74.259 	0.00	 
74.309 	0.00	 
74.359 	0.00	 
74.409 	0.00	 
74.459 	2.34	 
74.509 	3.49	 
74.559 	3.54	 
74.609 	3.54	 
74.659 	0.07	 
74.709 	0.00	 
74.759 	0.00	 
74.809 	0.00	 
74.859 	0.00	 
74.909 	0.00	 
74.959 	0.00	 
75.009 	0.00	 
75.059 	0.00	 
75.109 	0.00	 
75.159 	0.00	 
75.210 	0.00	 
75.260 	0.00	 
75.310 	0.00	 
75.360 	0.00	 
75.410 	0.00	 
75.460 	0.00	 
75.510 	0.00	 
75.560 	0.00	 
75.610 	0.00	 
75.660 	0.00	 
75.710 	0.00	 
75.760 	0.00	 
75.810 	0.00	 
75.860 	0.00	 
75.910 	0.00	 
75.960 	0.00	 
76.010 	0.00	 
76.060 	0.00	 
76.110 	0.00	 
76.160 	0.00	 
76.210 	0.00	 
76.260 	0.00	 
76.310 	0.00	 
76.360 	0.00	 
76.410 	0.00	 
76.460 	0.00	 
76.510 	0.00	 
76.560 	0.00	 
76.610 	0.00	 
76.660 	0.00	 
76.710 	0.00	 
76.760 	0.00	 
76.811 	0.00	 
76.861 	0.00	 
76.911 	0.00	 
76.961 	0.00	 
77.011 	0.00	 
77.061 	0.00	 
77.111 	0.00	 
77.161 	0.00	 
77.211 	0.00	 
77.261 	0.00	 
77.311 	0.00	 
77.361 	0.00	 
77.411 	0.00	 
77.461 	0.00	 
77.511 	0.00	 
77.561 	0.00	 
77.611 	0.00	 
77.661 	0.00	 
77.711 	0.00	 
77.761 	0.00	 
77.811 	0.00	 
77.861 	0.00	 
77.911 	0.00	 
77.961 	0.00	 
78.011 	0.00	 
78.061 	0.00	 
78.111 	0.00	 
78.161 	0.00	 
78.211 	0.00	 
78.261 	0.00	 
78.311 	0.00	 
78.361 	0.00	 
78.412 	0.00	 
78.462 	0.00	 
78.512 	0.00	 
78.562 	0.00	 
78.612 	0.00	 
78.662 	0.00	 
78.712 	0.00	 
78.762 	0.00	 
78.812 	0.00	 
78.862 	0.00	 
78.912 	0.00	 
78.962 	0.00	 
79.012 	0.00	 
79.062 	0.00	 
79.112 	0.00	 
79.162 	0.00	 
79.212 	0.00	 
79.262 	0.00	 
79.312 	0.00	 
79.362 	0.00	 
79.412 	0.00	 
79.462 	0.00	 
79.512 	0.00	 
79.562 	0.00	 
79.612 	0.00	 
79.662 	0.00	 
79.712 	0.00	 
79.762 	0.00	 
79.812 	0.00	 
79.862 	0.00	 
79.912 	0.00	 
79.962 	0.00	 
80.013 	0.00	 
80.063 	0.00	 
80.113 	0.00	 
80.163 	0.00	 
80.213 	0.00	 
80.263 	0.00	 
80.313 	0.00	 
80.363 	0.00	 
80.413 	0.00	 
80.463 	0.00	 
80.513 	0.00	 
80.563 	0.00	 
80.613 	0.00	 
80.663 	0.00	 
80.713 	0.00	 
80.763 	0.00	 
80.813 	0.00	 
80.863 	0.00	 
80.913 	0.00	 
80.963 	0.00	 
81.013 	0.00	 
81.063 	0.00	 
81.113 	0.00	 
81.163 	0.00	 
81.213 	0.00	 
81.263 	0.00	 
81.313 	0.00	 
81.363 	0.00	 
81.413 	0.00	 
81.463 	0.00	 
81.513 	0.00	 
81.563 	0.00	 
81.614 	0.00	 
81.664 	0.00	 
81.714 	0.00	 
81.764 	0.00	 
81.814 	0.00	 
81.864 	0.00	 
81.914 	0.00	 
81.964 	0.00	 
82.014 	0.00	 
82.064 	0.00	 
82.114 	0.00	 
82.164 	0.00	 
82.214 	0.00	 
82.264 	0.00	 
82.314 	0.00	 
82.364 	0.00	 
82.414 	0.00	 
82.464 	0.00	 
82.514 	0.00	 
82.564 	0.00	 
82.614 	0.00	 
82.664 	0.00	 
82.714 	0.00	 
82.764 	0.00	 
82.814 	0.00	 
82.864 	0.00	 
82.914 	0.00	 
82.964 	0.00	 
83.014 	0.00	 
83.064 	0.00	 
83.114 	0.00	 
83.164 	0.00	 
83.215 	0.00	 
83.265 	0.00	 
83.315 	0.00	 
83.365 	0.00	 
83.415 	0.00	 
83.465 	0.00	 
83.515 	0.00	 
83.565 	0.00	 
83.615 	0.00	 
83.665 	0.00	 
83.715 	0.00	 
83.765 	0.00	 
83.815 	0.00	 
83.865 	0.00	 
83.915 	0.00	 
83.965 	0.00	 
84.015 	0.00	 
84.065 	0.00	 
84.115 	0.00	 
84.165 	0.00	 
84.215 	0.00	 
84.265 	0.00	 
84.315 	0.00	 
84.365 	0.00	 
84.415 	0.00	 
84.465 	0.00	 
84.515 	0.00	 
84.565 	0.00	 
84.615 	0.00	 
84.665 	11.43	 
84.715 	12.65	 
84.765 	12.65	 
84.816 	12.70	 
84.866 	6.15	 
84.916 	0.56	 
84.966 	0.00	 
85.016 	0.00	 
85.066 	0.00	 
85.116 	0.00	 
85.166 	0.00	 
85.216 	0.00	 
85.266 	0.00	 
85.316 	0.00	 
85.366 	0.00	 
85.416 	0.00	 
85.466 	0.00	 
85.516 	0.00	 
85.566 	0.00	 
85.616 	0.00	 
85.666 	0.00	 
85.716 	0.00	 
85.766 	0.00	 
85.816 	0.00	 
85.866 	0.00	 
85.916 	0.00	 
85.966 	0.00	 
86.016 	0.00	 
86.066 	0.00	 
86.116 	0.00	 
86.166 	0.00	 
86.216 	0.00	 
86.266 	0.00	 
86.316 	0.00	 
86.366 	0.00	 
86.417 	0.00	 
86.467 	0.00	 
86.517 	0.00	 
86.567 	0.00	 
86.617 	0.00	 
86.667 	0.00	 
86.717 	0.00	 
86.767 	0.00	 
86.817 	0.00	 
86.867 	0.00	 
86.917 	0.00	 
86.967 	0.00	 
87.017 	0.00	 
87.067 	0.00	 
87.117 	0.00	 
87.167 	0.00	 
87.217 	0.00	 
87.267 	0.00	 
87.317 	0.00	 
87.367 	0.00	 
87.417 	0.00	 
87.467 	0.00	 
87.517 	0.00	 
87.567 	0.00	 
87.617 	0.00	 
87.667 	0.00	 
87.717 	0.00	 
87.767 	0.00	 
87.817 	0.00	 
87.867 	0.00	 
87.917 	0.00	 
87.967 	0.00	 
88.018 	0.00	 
88.068 	0.00	 
88.118 	0.00	 
88.168 	0.00	 
88.218 	0.00	 
88.268 	0.00	 
88.318 	0.00	 
88.368 	0.00	 
88.418 	0.00	 
88.468 	0.00	 
88.518 	0.00	 
88.568 	0.00	 
88.618 	0.00	 
88.668 	0.00	 
88.718 	0.00	 
88.768 	0.00	 
88.818 	0.00	 
88.868 	0.00	 
88.918 	0.00	 
88.968 	0.00	 
89.018 	0.00	 
89.068 	0.00	 
89.118 	0.00	 
89.168 	0.00	 
89.218 	0.00	 
89.268 	0.00	 
89.318 	0.00	 
89.368 	0.00	 
89.418 	0.00	 
89.468 	0.00	 
89.518 	0.00	 
89.568 	0.00	 
89.619 	0.00	 
89.669 	0.00	 
89.719 	0.00	 
89.769 	0.00	 
89.819 	0.00	 
89.869 	0.00	 
89.919 	0.00	 
89.969 	0.00	 
90.019 	0.00	 
90.069 	0.00	 
90.119 	0.00	 
90.169 	0.00	 
90.219 	0.00	 
90.269 	0.00	 
90.319 	0.00	 
90.369 	0.00	 
90.419 	0.00	 
90.469 	0.00	 
90.519 	0.00	 
90.569 	0.00	 
90.619 	0.00	 
90.669 	1.71	 
90.719 	10.09	 
90.769 	10.09	 
90.819 	13.60	 
90.869 	13.89	 
90.919 	11.62	 
90.969 	2.78	 
91.019 	0.07	 
91.069 	0.00	 
91.119 	0.00	 
91.169 	0.00	 
91.220 	0.00	 
91.270 	0.00	 
91.320 	0.00	 
91.370 	0.00	 
91.420 	0.00	 
91.470 	0.00	 
91.520 	0.00	 
91.570 	0.00	 
91.620 	0.00	 
91.670 	0.00	 
91.720 	0.00	 
91.770 	0.00	 
91.820 	0.00	 
91.870 	0.00	 
91.920 	0.00	 
91.970 	0.00	 
92.020 	0.00	 
92.070 	0.00	 
92.120 	0.00	 
92.170 	0.00	 
92.220 	0.00	 
92.270 	0.00	 
92.320 	0.00	 
92.370 	0.00	 
92.420 	0.00	 
92.470 	0.00	 
92.520 	0.00	 
92.570 	0.00	 
92.620 	0.00	 
92.670 	0.00	 
92.720 	0.00	 
92.770 	0.00	 
92.821 	0.00	 
92.871 	0.00	 
92.921 	0.00	 
92.971 	0.00	 
93.021 	0.00	 
93.071 	0.00	 
93.121 	0.00	 
93.171 	0.00	 
93.221 	0.00	 
93.271 	0.00	 
93.321 	0.00	 
93.371 	0.00	 
93.421 	0.00	 
93.471 	0.00	 
93.521 	0.00	 
93.571 	0.00	 
93.621 	0.00	 
93.671 	0.00	 
93.721 	0.00	 
93.771 	0.00	 
93.821 	0.00	 
93.871 	0.00	 
93.921 	0.00	 
93.971 	0.00	 
94.021 	0.00	 
94.071 	0.00	 
94.121 	0.00	 
94.171 	0.00	 
94.221 	0.00	 
94.271 	0.00	 
94.321 	0.00	 
94.371 	0.00	 
94.422 	0.00	 
94.472 	0.00	 
94.522 	0.00	 
94.572 	0.00	 
94.622 	0.00	 
94.672 	0.00	 
94.722 	0.00	 
94.772 	0.00	 
94.822 	0.00	 
94.872 	0.00	 
94.922 	0.00	 
94.972 	0.00	 
95.022 	0.00	 
95.072 	0.00	 
95.122 	0.00	 
95.172 	0.00	 
95.222 	0.00	 
95.272 	0.00	 
95.322 	0.00	 
95.372 	0.00	 
95.422 	0.00	 
95.472 	0.00	 
95.522 	0.00	 
95.572 	0.00	 
95.622 	0.00	 
95.672 	0.00	 
95.722 	0.00	 
95.772 	0.00	 
95.822 	0.00	 
95.872 	0.00	 
95.922 	0.00	 
95.972 	0.00	 
96.023 	0.00	 
96.073 	0.00	 
96.123 	0.00	 
96.173 	0.00	 
96.223 	0.00	 
96.273 	0.00	 
96.323 	0.00	 
96.373 	0.00	 
96.423 	0.00	 
96.473 	0.00	 
96.523 	0.00	 
96.573 	0.00	 
96.623 	0.00	 
96.673 	0.00	 
96.723 	0.00	 
96.773 	0.00	 
96.823 	0.00	 
96.873 	0.00	 
96.923 	0.00	 
96.973 	0.00	 
97.023 	0.00	 
97.073 	0.00	 
97.123 	0.00	 
97.173 	0.00	 
97.223 	0.00	 
97.273 	0.00	 
97.323 	0.00	 
97.373 	0.00	 
97.423 	0.00	 
97.473 	0.00	 
97.523 	0.00	 
97.573 	0.00	 
97.624 	0.00	 
97.674 	0.00	 
97.724 	0.00	 
97.774 	0.00	 
97.824 	0.00	 
97.874 	0.00	 
97.924 	0.00	 
97.974 	0.00	 
98.024 	0.00	 
98.074 	0.00	 
98.124 	0.00	 
98.174 	0.00	 
98.224 	0.00	 
98.274 	0.00	 
98.324 	0.00	 
98.374 	0.00	 
98.424 	0.00	 
98.474 	0.00	 
98.524 	0.00	 
98.574 	0.00	 
98.624 	0.00	 
98.674 	0.00	 
98.724 	0.00	 
98.774 	0.00	 
98.824 	0.00	 
98.874 	0.00	 
98.924 	0.00	 
98.974 	0.00	 
99.024 	0.00	 
99.074 	0.00	 
99.124 	0.00	 
99.174 	0.00	 
99.225 	0.00	 
99.275 	0.00	 
99.325 	0.00	 
99.375 	0.00	 
99.425 	0.00	 
99.475 	0.00	 
99.525 	0.00	 
99.575 	0.00	 
99.625 	0.00	 
99.675 	0.00	 
99.725 	0.00	 
99.775 	0.00	 
99.825 	0.00	 
99.875 	0.00	 
99.925 	0.00	 
99.975 	0.00	 
100.025 	0.00	 
100.075 	1.00	 
100.125 	1.00	 
100.175 	10.99	 
100.225 	11.21	 
100.275 	11.21	 
100.325 	10.84	 
100.375 	4.37	 
100.425 	0.44	 
100.475 	0.00	 
100.525 	0.00	 
100.575 	0.00	 
100.625 	0.00	 
100.675 	0.00	 
100.726 	0.00	 
100.776 	0.00	 
100.826 	0.00	 
100.876 	0.00	 
100.926 	0.00	 
100.976 	0.00	 
101.026 	0.00	 
101.076 	0.00	 
101.126 	0.00	 
101.176 	0.00	 
101.226 	0.00	 
101.276 	0.00	 
101.326 	0.00	 
101.376 	0.00	 
101.426 	0.00	 
101.476 	0.00	 
101.526 	0.00	 
101.576 	0.00	 
101.626 	0.00	 
101.676 	0.00	 
101.726 	0.00	 
101.776 	0.00	 
101.826 	0.00	 
101.876 	0.00	 
101.926 	0.00	 
101.976 	0.00	 
102.026 	0.00	 
102.076 	0.00	 
102.126 	0.00	 
102.176 	0.00	 
102.226 	0.00	 
102.276 	0.00	 
102.327 	0.00	 
102.377 	0.00	 
102.427 	0.00	 
102.477 	0.00	 
102.527 	0.00	 
102.577 	0.00	 
102.627 	0.00	 
102.677 	0.00	 
102.727 	0.00	 
102.777 	0.00	 
102.827 	0.00	 
102.877 	0.00	 
102.927 	0.00	 
102.977 	0.00	 
103.027 	0.00	 
103.077 	0.00	 
103.127 	0.00	 
103.177 	0.00	 
103.227 	0.00	 
103.277 	0.00	 
103.327 	0.00	 
103.377 	0.00	 
103.427 	0.00	 
103.477 	0.00	 
103.527 	0.00	 
103.577 	0.00	 
103.627 	0.00	 
103.677 	0.00	 
103.727 	0.00	 
103.777 	0.00	 
103.827 	0.00	 
103.877 	0.00	 
103.928 	0.00	 
103.978 	0.00	 
104.028 	0.00	 
104.078 	0.00	 
104.128 	0.00	 
104.178 	0.00	 
104.228 	0.00	 
104.278 	0.00	 
104.328 	0.00	 
104.378 	0.00	 
104.428 	0.00	 
104.478 	0.00	 
104.528 	0.00	 
104.578 	0.00	 
104.628 	0.00	 
104.678 	0.00	 
104.728 	0.00	 
104.778 	0.00	 
104.828 	0.00	 
104.878 	0.00	 
104.928 	0.00	 
104.978 	0.00	 
105.028 	0.00	 
105.078 	0.00	 
105.128 	0.00	 
105.178 	0.00	 
105.228 	0.00	 
105.278 	0.00	 
105.328 	0.00	 
105.378 	0.00	 
105.428 	0.00	 
105.478 	0.00	 
105.529 	0.00	 
105.579 	0.00	 
105.629 	0.00	 
105.679 	0.00	 
105.729 	0.00	 
105.779 	0.00	 
105.829 	0.00	 
105.879 	0.00	 
105.929 	0.00	 
105.979 	0.00	 
106.029 	0.00	 
106.079 	0.00	 
106.129 	0.00	 
106.179 	0.00	 
106.229 	0.00	 
106.279 	0.00	 
106.329 	0.00	 
106.379 	0.00	 
106.429 	0.00	 
106.479 	0.00	 
106.529 	0.00	 
106.579 	0.00	 
106.629 	0.00	 
106.679 	0.00	 
106.729 	0.00	 
106.779 	0.00	 
106.829 	0.00	 
106.879 	0.00	 
106.929 	0.00	 
106.979 	0.00	 
107.029 	0.00	 
107.079 	0.00	 
107.130 	0.00	 
107.180 	0.00	 
107.230 	0.00	 
107.280 	0.00	 
107.330 	0.00	 
107.380 	0.00	 
107.430 	0.00	 
107.480 	0.00	 
107.530 	0.00	 
107.580 	0.00	 
107.630 	0.00	 
107.680 	0.00	 
107.730 	0.00	 
107.780 	0.00	 
107.830 	0.00	 
107.880 	0.00	 
107.930 	0.00	 
107.980 	0.00	 
108.030 	0.00	 
108.080 	0.00	 
108.130 	0.00	 
108.180 	0.00	 
108.230 	0.00	 
108.280 	0.00	 
108.330 	0.00	 
108.380 	0.00	 
108.430 	0.00	 
108.480 	0.00	 
108.530 	0.00	 
108.580 	0.00	 
108.630 	0.00	 
108.680 	0.00	 
108.731 	0.00	 
108.781 	0.00	 
108.831 	0.00	 
108.881 	0.00	 
108.931 	0.00	 
108.981 	0.00	 
109.031 	0.00	 
109.081 	0.00	 
109.131 	0.00	 
109.181 	0.00	 
109.231 	0.00	 
109.281 	0.00	 
109.331 	0.00	 
109.381 	0.00	 
109.431 	0.00	 
109.481 	0.00	 
109.531 	0.00	 
109.581 	0.00	 
109.631 	0.00	 
109.681 	0.00	 
109.731 	0.00	 
109.781 	0.00	 
109.831 	0.00	 
109.881 	0.00	 
109.931 	0.00	 
109.981 	0.00	 
110.031 	0.00	 
110.081 	0.00	 
110.131 	0.00	 
110.181 	0.00	 
110.231 	0.00	 
110.281 	0.00	 
110.332 	0.00	 
110.382 	0.00	 
110.432 	0.00	 
110.482 	0.00	 
110.532 	0.00	 
110.582 	0.00	 
110.632 	0.00	 
110.682 	0.00	 
110.732 	0.00	 
110.782 	0.00	 
110.832 	0.00	 
110.882 	0.00	 
110.932 	0.00	 
110.982 	0.00	 
111.032 	0.00	 
111.082 	0.00	 
111.132 	0.00	 
111.182 	0.00	 
111.232 	0.00	 
111.282 	0.00	 
111.332 	0.00	 
111.382 	0.00	 
111.432 	0.00	 
111.482 	0.00	 
111.532 	0.00	 
111.582 	0.00	 
111.632 	0.00	 
111.682 	0.00	 
111.732 	0.00	 
111.782 	0.00	 
111.832 	0.00	 
111.882 	0.00	 
111.933 	0.00	 
111.983 	0.00	 
112.033 	0.00	 
112.083 	0.00	 
112.133 	0.00	 
112.183 	0.00	 
112.233 	0.00	 
112.283 	0.00	 
112.333 	0.00	 
112.383 	0.00	 
112.433 	0.00	 
112.483 	0.00	 
112.533 	0.00	 
112.583 	0.00	 
112.633 	0.00	 
112.683 	0.00	 
112.733 	0.00	 
112.783 	0.00	 
112.833 	0.00	 
112.883 	0.00	 
112.933 	0.00	 
112.983 	0.00	 
113.033 	0.00	 
113.083 	0.00	 
113.133 	0.00	 
113.183 	0.00	 
113.233 	0.00	 
113.283 	0.00	 
113.333 	0.00	 
113.383 	0.00	 
113.433 	0.00	 
113.483 	0.00	 
113.534 	0.00	 
113.584 	0.00	 
113.634 	0.00	 
113.684 	0.00	 
113.734 	0.00	 
113.784 	0.00	 
113.834 	0.00	 
113.884 	0.00	 
113.934 	0.00	 
113.984 	0.00	 
114.034 	0.00	 
114.084 	0.00	 
114.134 	0.00	 
114.184 	0.00	 
114.234 	0.00	 
114.284 	0.00	 
114.334 	0.00	 
114.384 	0.00	 
114.434 	0.00	 
114.484 	0.00	 
114.534 	0.00	 
114.584 	0.00	 
114.634 	0.00	 
114.684 	0.00	 
114.734 	0.00	 
114.784 	0.00	 
114.834 	0.00	 
114.884 	0.00	 
114.934 	0.00	 
114.984 	0.00	 
115.034 	0.00	 
115.084 	0.00	 
115.135 	0.00	 
115.185 	0.00	 
115.235 	0.00	 
115.285 	0.00	 
115.335 	0.00	 
115.385 	0.00	 
115.435 	0.00	 
115.485 	0.00	 
115.535 	0.00	 
115.585 	0.00	 
115.635 	0.00	 
115.685 	0.00	 
115.735 	0.00	 
115.785 	0.00	 
115.835 	0.00	 
115.885 	0.00	 
115.935 	0.00	 
115.985 	0.00	 
116.035 	0.00	 
116.085 	0.00	 
116.135 	0.00	 
116.185 	0.00	 
116.235 	0.00	 
116.285 	0.00	 
116.335 	0.00	 
116.385 	0.00	 
116.435 	0.00	 
116.485 	0.00	 
116.535 	0.00	 
116.585 	0.00	 
116.635 	0.00	 
116.685 	0.00	 
116.736 	0.00	 
116.786 	0.00	 
116.836 	0.00	 
116.886 	0.00	 
116.936 	0.00	 
116.986 	0.00	 
117.036 	0.00	 
117.086 	0.00	 
117.136 	0.00	 
117.186 	0.00	 
117.236 	0.00	 
117.286 	0.00	 
117.336 	0.00	 
117.386 	0.00	 
117.436 	0.00	 
117.486 	0.00	 
117.536 	0.00	 
117.586 	0.00	 
117.636 	0.00	 
117.686 	0.00	 
117.736 	0.00	 
117.786 	0.00	 
117.836 	0.00	 
117.886 	0.00	 
117.936 	0.00	 
117.986 	0.00	 
118.036 	0.00	 
118.086 	0.00	 
118.136 	0.00	 
118.186 	0.00	 
118.236 	0.00	 
118.286 	0.00	 
118.337 	0.00	 
118.387 	0.00	 
118.437 	0.00	 
118.487 	0.00	 
118.537 	0.00	 
118.587 	0.00	 
118.637 	0.00	 
118.687 	0.00	 
118.737 	0.00	 
118.787 	0.00	 
118.837 	0.00	 
118.887 	0.00	 
118.937 	0.00	 
118.987 	0.00	 
119.037 	0.00	 
119.087 	0.00	 
119.137 	0.00	 
119.187 	0.00	 
119.237 	0.00	 
119.287 	0.00	 
119.337 	0.00	 
119.387 	0.00	 
119.437 	0.00	 
119.487 	0.00	 
119.537 	0.00	 
119.587 	0.00	 
119.637 	0.00	 
119.687 	0.00	 
119.737 	0.00	 
119.787 	0.00	 
119.837 	0.00	 
119.887 	0.00	 
119.938 	0.00	 
119.988 	0.00	 
120.038 	0.00	 
120.088 	0.00	 
120.138 	0.00	 
120.188 	0.00	 
120.238 	0.00	 
120.288 	0.00	 
120.338 	0.00	 
120.388 	0.00	 
120.438 	0.00	 
120.488 	0.00	 
120.538 	0.00	 
120.588 	0.00	 
120.638 	0.00	 
120.688 	0.00	 
120.738 	0.00	 
120.788 	0.00	 
120.838 	0.00	 
120.888 	0.00	 
120.938 	0.00	 
120.988 	0.00	 
121.038 	0.00	 
121.088 	0.00	 
121.138 	0.00	 
121.188 	0.00	 
121.238 	0.00	 
121.288 	0.00	 
121.338 	0.00	 
121.388 	0.00	 
121.438 	0.00	 
121.488 	0.00	 
121.539 	0.00	 
121.589 	0.00	 
121.639 	0.00	 
121.689 	0.00	 
121.739 	0.00	 
121.789 	0.00	 
121.839 	0.00	 
121.889 	0.00	 
121.939 	0.00	 
121.989 	0.00	 
122.039 	0.00	 
122.089 	0.00	 
122.139 	0.00	 
122.189 	0.00	 
122.239 	0.00	 
122.289 	0.00	 
122.339 	0.00	 
122.389 	0.00	 
122.439 	0.00	 
122.489 	0.00	 
122.539 	0.00	 
122.589 	0.00	 
122.639 	0.00	 
122.689 	0.00	 
122.739 	0.00	 
122.789 	0.00	 
122.839 	0.00	 
122.889 	0.00	 
122.939 	0.00	 
122.989 	0.00	 
123.039 	0.00	 
123.089 	0.00	 
123.140 	0.00	 
123.190 	0.00	 
123.240 	0.00	 
123.290 	0.00	 
123.340 	0.00	 
123.390 	0.00	 
123.440 	0.00	 
123.490 	0.00	 
123.540 	0.00	 
123.590 	0.00	 
123.640 	0.00	 
123.690 	0.00	 
123.740 	0.00	 
123.790 	0.00	 
123.840 	0.00	 
123.890 	0.00	 
123.940 	0.00	 
123.990 	0.00	 
124.040 	0.00	 
124.090 	0.00	 
124.140 	0.00	 
124.190 	0.00	 
124.240 	0.00	 
124.290 	0.00	 
124.340 	0.00	 
124.390 	0.00	 
124.440 	0.00	 
124.490 	0.00	 
124.540 	0.00	 
124.590 	0.00	 
124.640 	0.00	 
124.690 	0.00	 
124.741 	0.00	 
124.791 	0.00	 
124.841 	0.00	 
124.891 	0.00	 
124.941 	0.00	 
124.991 	0.00	 
125.041 	0.00	 
125.091 	0.00	 
125.141 	0.00	 
125.191 	0.00	 
125.241 	0.00	 
125.291 	0.00	 
125.341 	0.00	 
125.391 	0.00	 
125.441 	0.00	 
125.491 	0.00	 
125.541 	0.00	 
125.591 	0.00	 
125.641 	0.00	 
125.691 	0.00	 
125.741 	0.00	 
125.791 	0.00	 
125.841 	0.00	 
125.891 	0.00	 
125.941 	0.00	 
125.991 	0.00	 
126.041 	0.00	 
126.091 	0.00	 
126.141 	0.00	 
126.191 	0.00	 
126.241 	0.00	 
126.291 	0.00	 
126.342 	0.00	 
126.392 	0.00	 
126.442 	0.00	 
126.492 	0.00	 
126.542 	0.00	 
126.592 	0.00	 
126.642 	0.00	 
126.692 	0.00	 
126.742 	0.00	 
126.792 	0.00	 
126.842 	0.00	 
126.892 	0.00	 
126.942 	0.00	 
126.992 	0.00	 
127.042 	0.00	 
127.092 	0.00	 
127.142 	0.00	 
127.192 	0.00	 
127.242 	0.00	 
127.292 	0.00	 
127.342 	0.00	 
127.392 	0.00	 
127.442 	0.00	 
127.492 	0.00	 
127.542 	0.00	 
127.592 	0.00	 
127.642 	0.00	 
127.692 	0.00	 
127.742 	0.00	 
127.792 	0.00	 
127.842 	0.00	 
127.892 	0.00	 
127.943 	0.00	 
127.993 	0.00	 
128.043 	0.00	 
128.093 	0.00	 
128.143 	0.00	 
128.193 	0.07	 
128.243 	0.78	 
128.293 	0.78	 
128.343 	2.78	 
128.393 	3.98	 
128.443 	4.20	 
128.493 	4.20	 
128.543 	3.81	 
128.593 	2.20	 
128.643 	2.20	 
128.693 	0.00	 
128.743 	0.00	 
128.793 	0.00	 
128.843 	0.00	 
128.893 	0.00	 
128.943 	0.00	 
128.993 	0.00	 
129.043 	0.00	 
129.093 	0.00	 
129.143 	0.00	 
129.193 	0.00	 
129.243 	0.00	 
129.293 	0.00	 
129.343 	0.00	 
129.393 	0.00	 
129.443 	0.00	 
129.493 	0.00	 
129.544 	0.00	 
129.594 	0.00	 
129.644 	0.00	 
129.694 	0.00	 
129.744 	0.00	 
129.794 	0.00	 
129.844 	0.00	 
129.894 	0.00	 
129.944 	0.00	 
129.994 	0.00	 
130.044 	0.00	 
130.094 	0.00	 
130.144 	0.00	 
130.194 	0.00	 
130.244 	0.00	 
130.294 	0.00	 
130.344 	0.00	 
130.394 	0.00	 
130.444 	0.00	 
130.494 	0.00	 
130.544 	0.00	 
130.594 	0.00	 
130.644 	0.00	 
130.694 	0.00	 
130.744 	0.00	 
130.794 	0.00	 
130.844 	0.00	 
130.894 	0.00	 
130.944 	0.00	 
130.994 	0.00	 
131.044 	0.00	 
131.094 	0.00	 
131.145 	0.00	 
131.195 	0.00	 
131.245 	0.00	 
131.295 	0.00	 
131.345 	0.00	 
131.395 	0.00	 
131.445 	0.00	 
131.495 	0.00	 
131.545 	0.00	 
131.595 	0.00	 
131.645 	0.00	 
131.695 	0.00	 
131.745 	0.00	 
131.795 	0.00	 
131.845 	0.00	 
131.895 	0.00	 
131.945 	0.00	 
131.995 	0.00	 
132.045 	0.00	 
132.095 	0.00	 
132.145 	0.00	 
132.195 	0.00	 
132.245 	0.00	 
132.295 	0.00	 
132.345 	0.00	 
132.395 	0.00	 
132.445 	0.00	 
132.495 	0.00	 
132.545 	0.00	 
132.595 	0.00	 
132.645 	0.00	 
132.695 	0.00	 
132.746 	0.00	 
132.796 	0.00	 
132.846 	0.00	 
132.896 	0.00	 
132.946 	0.00	 
132.996 	0.00	 
133.046 	0.00	 
133.096 	0.00	 
133.146 	0.00	 
133.196 	0.00	 
133.246 	0.00	 
133.296 	0.00	 
133.346 	0.00	 
133.396 	0.00	 
133.446 	0.00	 
133.496 	0.00	 
133.546 	0.00	 
133.596 	0.00	 
133.646 	0.00	 
133.696 	0.00	 
133.746 	0.00	 
133.796 	0.00	 
133.846 	0.00	 
133.896 	0.00	 
133.946 	0.00	 
133.996 	0.00	 
134.046 	0.00	 
134.096 	0.00	 
134.146 	0.00	 
134.196 	0.00	 
134.246 	0.00	 
134.296 	0.00	 
134.347 	0.00	 
134.397 	0.00	 
134.447 	0.00	 
134.497 	0.00	 
134.547 	0.00	 
134.597 	0.00	 
134.647 	0.00	 
134.697 	0.00	 
134.747 	0.00	 
134.797 	0.00	 
134.847 	0.00	 
134.897 	0.00	 
134.947 	0.00	 
134.997 	0.00	 
135.047 	0.00	 
135.097 	0.00	 
135.147 	0.00	 
135.197 	0.00	 
135.247 	0.00	 
135.297 	0.00	 
135.347 	0.00	 
135.397 	0.00	 
135.447 	0.00	 
135.497 	0.00	 
135.547 	0.00	 
135.597 	0.00	 
135.647 	0.00	 
135.697 	0.00	 
135.747 	0.00	 
135.797 	0.00	 
135.847 	0.00	 
135.897 	0.00	 
135.948 	0.00	 
135.998 	0.00	 
136.048 	0.00	 
136.098 	0.00	 
136.148 	0.00	 
136.198 	0.00	 
136.248 	0.00	 
136.298 	0.00	 
136.348 	0.00	 
136.398 	0.00	 
136.448 	0.00	 
136.498 	0.00	 
136.548 	0.00	 
136.598 	0.00	 
136.648 	0.00	 
136.698 	0.00	 
136.748 	0.00	 
136.798 	0.00	 
136.848 	0.00	 
136.898 	0.00	 
136.948 	0.00	 
136.998 	0.00	 
137.048 	0.00	 
137.098 	0.00	 
137.148 	0.00	 
137.198 	0.00	 
137.248 	0.00	 
137.298 	0.00	 
137.348 	0.00	 
137.398 	0.00	 
137.448 	0.00	 
137.498 	0.00	 
137.549 	0.00	 
137.599 	0.00	 
137.649 	0.00	 
137.699 	0.00	 
137.749 	0.00	 
137.799 	0.00	 
137.849 	0.00	 
137.899 	0.00	 
137.949 	0.00	 
137.999 	0.00	 
138.049 	0.00	 
138.099 	0.00	 
138.149 	0.00	 
138.199 	0.00	 
138.249 	0.00	 
138.299 	0.00	 
138.349 	0.00	 
138.399 	0.02	 
138.449 	0.22	 
138.499 	0.63	 
138.549 	1.44	 
138.599 	1.76	 
138.649 	1.76	 
138.699 	1.83	 
138.749 	1.59	 
138.799 	1.59	 
138.849 	1.00	 
138.899 	0.32	 
138.949 	0.10	 
138.999 	0.00	 
139.049 	0.00	 
139.099 	0.00	 
139.150 	0.00	 
139.200 	0.00	 
139.250 	0.00	 
139.300 	0.00	 
139.350 	0.00	 
139.400 	0.00	 
139.450 	0.00	 
139.500 	0.00	 
139.550 	0.00	 
139.600 	0.00	 
139.650 	0.00	 
139.700 	0.00	 
139.750 	0.00	 
139.800 	0.00	 
139.850 	0.00	 
139.900 	0.00	 
139.950 	0.00	 
140.000 	0.00	 
